# Time (s)	Height (ft)
0.0000 8.0000
0.1000 7.9314
0.2000 7.8636
0.3000 7.7966
0.4000 7.7305
0.5000 7.6650
0.6000 7.6003
0.7000 7.5363
0.8000 7.4729
0.9000 7.4102
1.0000 7.3480
1.1000 7.2864
1.2000 7.2254
1.3000 7.1649
1.4000 7.1049
1.5000 7.0454
1.6000 6.9863
1.7000 6.9277
1.8000 6.8695
1.9000 6.8118
2.0000 6.7544
2.1000 6.6975
2.2000 6.6409
2.3000 6.5846
2.4000 6.5287
2.5000 6.4732
2.6000 6.4180
2.7000 6.3630
2.8000 6.3084
2.9000 6.2541
3.0000 6.2001
3.1000 6.1463
3.2000 6.0928
3.3000 6.0395
3.4000 5.9865
3.5000 5.9337
3.6000 5.8812
3.7000 5.8288
3.8000 5.7767
3.9000 5.7248
4.0000 5.6730
4.1000 5.6215
4.2000 5.5702
4.3000 5.5190
4.4000 5.4680
4.5000 5.4171
4.6000 5.3664
4.7000 5.3159
4.8000 5.2655
4.9000 5.2153
5.0000 5.1651
5.1000 5.1151
5.2000 5.0653
5.3000 5.0155
5.4000 4.9659
5.5000 4.9163
5.6000 4.8669
5.7000 4.8175
5.8000 4.7683
5.9000 4.7191
6.0000 4.6700
6.1000 4.6210
6.2000 4.5720
6.3000 4.5231
6.4000 4.4743
6.5000 4.4255
6.6000 4.3767
6.7000 4.3280
6.8000 4.2794
6.9000 4.2308
7.0000 4.1822
7.1000 4.1336
7.2000 4.0850
7.3000 4.0365
7.4000 3.9879
7.5000 3.9394
7.6000 3.8909
7.7000 3.8423
7.8000 3.7937
7.9000 3.7452
8.0000 3.6965
8.1000 3.6479
8.2000 3.5992
8.3000 3.5505
8.4000 3.5017
8.5000 3.4529
8.6000 3.4040
8.7000 3.3550
8.8000 3.3060
8.9000 3.2568
9.0000 3.2076
9.1000 3.1583
9.2000 3.1089
9.3000 3.0593
9.4000 3.0097
9.5000 2.9599
9.6000 2.9099
9.7000 2.8599
9.8000 2.8096
9.9000 2.7592
10.0000 2.7086
10.1000 2.6578
10.2000 2.6068
10.3000 2.5556
10.4000 2.5042
10.5000 2.4525
10.6000 2.4006
10.7000 2.3484
10.8000 2.2958
10.9000 2.2430
11.0000 2.1899
11.1000 2.1364
11.2000 2.0825
11.3000 2.0283
11.4000 1.9736
11.5000 1.9184
11.6000 1.8628
11.7000 1.8067
11.8000 1.7500
11.9000 1.6927
12.0000 1.6348
12.1000 1.5762
12.2000 1.5169
12.3000 1.4567
12.4000 1.3957
12.5000 1.3337
12.6000 1.2707
12.7000 1.2065
12.8000 1.1409
12.9000 1.0740
13.0000 1.0054
13.1000 0.9350
13.2000 0.8624
13.3000 0.7873
13.4000 0.7092
13.5000 0.6276
13.6000 0.5414
13.7000 0.4492
13.8000 0.3489
13.9000 0.2361
14.0000 0.1002
14.1000 0.0000
